#Parameters = {L=149.416; Lf=38; Lg=192.8032053872; W=102.45668571429; Wf=3.1; Wg=107.84389110149; ataslengkung=17.811178807947; bawahlengkung=49.475496688742; dgs=160; h=0.89786756453423; sampingdgs=0; skala=8.5380571428571; t=0.019640852974186}
#"Frequency / MHz"	"VSWR1 [Magnitude]"
#-------------------------------------
233.00000000000	22.370925071866
233.39999389648	22.257269615811
233.80000305176	22.144640689120
234.19999694824	22.033016390841
234.60000610352	21.922379776284
235.00000000000	21.812665934225
235.39999389648	21.703936688678
235.80000305176	21.596084735051
236.19999694824	21.489171502335
236.60000610352	21.383151731735
237.00000000000	21.277970140702
237.39999389648	21.173658008737
237.80000305176	21.070146013232
238.19999694824	20.967454827698
238.60000610352	20.865545161120
239.00000000000	20.764408822099
239.39999389648	20.664022061582
239.80000305176	20.564366878344
240.19999694824	20.465409003186
240.60000610352	20.367147110425
241.00000000000	20.269557232504
241.39999389648	20.172612340718
241.80000305176	20.076294781873
242.19999694824	19.980588911920
242.60000610352	19.885483353394
243.00000000000	19.790956763872
243.39999389648	19.696985941756
243.80000305176	19.603556263509
244.19999694824	19.510643727069
244.60000610352	19.418231873201
245.00000000000	19.326316527564
245.39999389648	19.234843773533
245.80000305176	19.143844324155
246.19999694824	19.053261459079
246.60000610352	18.963118835440
247.00000000000	18.873359788833
247.39999389648	18.783987210526
247.80000305176	18.694989514796
248.19999694824	18.606327838634
248.60000610352	18.518022944013
249.00000000000	18.430028398548
249.39999389648	18.342360477457
249.80000305176	18.254974043586
250.19999694824	18.167864783345
250.60000610352	18.081021856547
251.00000000000	17.994438785706
251.39999389648	17.908095095833
251.80000305176	17.821973944112
252.19999694824	17.736071610595
252.60000610352	17.650380912425
253.00000000000	17.564864932724
253.39999389648	17.479541809324
253.80000305176	17.394394904085
254.19999694824	17.309395001311
254.60000610352	17.224544468613
255.00000000000	17.139847350174
255.39999389648	17.055266174178
255.80000305176	16.970810452382
256.20001220703	16.886473802265
256.60000610352	16.802242506778
257.00000000000	16.718110615786
257.39999389648	16.634064242661
257.79998779297	16.550106197259
258.20001220703	16.466228470743
258.60000610352	16.382411537637
259.00000000000	16.298654067403
259.39999389648	16.214965356700
259.79998779297	16.131334245590
260.20001220703	16.047750816928
260.60000610352	15.964210367649
261.00000000000	15.880720691264
261.39999389648	15.797249223433
261.79998779297	15.713840317954
262.20001220703	15.630449113558
262.60000610352	15.547081345020
263.00000000000	15.463750752362
263.39999389648	15.380435532243
263.79998779297	15.297155479027
264.20001220703	15.213888883227
264.60000610352	15.130641979821
265.00000000000	15.047426051307
265.39999389648	14.964234528203
265.79998779297	14.881062857614
266.20001220703	14.797910713148
266.60000610352	14.714779337105
267.00000000000	14.631682355003
267.39999389648	14.548600144488
267.79998779297	14.465553319272
268.20001220703	14.382538960828
268.60000610352	14.299544941537
269.00000000000	14.216597191264
269.39999389648	14.133675682281
269.79998779297	14.050800451330
270.20001220703	13.967971665216
270.60000610352	13.885184845264
271.00000000000	13.802446124493
271.39999389648	13.719770552551
271.79998779297	13.637139780272
272.20001220703	13.554584527860
272.60000610352	13.472091038525
273.00000000000	13.389675559720
273.39999389648	13.307329071864
273.79998779297	13.225071861869
274.20001220703	13.142891094711
274.60000610352	13.060809495924
275.00000000000	12.978826536700
275.39999389648	12.896935187116
275.79998779297	12.815171441056
276.20001220703	12.733506411509
276.60000610352	12.651967462961
277.00000000000	12.570553001083
277.39999389648	12.489273125383
277.79998779297	12.408127006083
278.20001220703	12.327125983106
278.60000610352	12.246278554119
279.00000000000	12.165585892485
279.39999389648	12.085057484248
279.79998779297	12.004699703576
280.20001220703	11.924513814129
280.60000610352	11.844510537420
281.00000000000	11.764699891923
281.39999389648	11.685081271084
281.79998779297	11.605655430240
282.20001220703	11.526447316157
282.60000610352	11.447449186785
283.00000000000	11.368669276307
283.39999389648	11.290117431160
283.79998779297	11.211798665025
284.20001220703	11.133718775262
284.60000610352	11.055878588300
285.00000000000	10.978296131924
285.39999389648	10.900970297157
285.79998779297	10.823900900993
286.20001220703	10.747101444188
286.60000610352	10.670580588974
287.00000000000	10.594330952490
287.39999389648	10.518379115452
287.79998779297	10.442709193318
288.20001220703	10.367342514648
288.60000610352	10.292267662305
289.00000000000	10.217511046925
289.39999389648	10.143057821978
289.79998779297	10.068927174348
290.20001220703	9.9951192762664
290.60000610352	9.9216364382185
291.00000000000	9.8484886117631
291.39999389648	9.7756719265006
291.79998779297	9.7031995688537
292.20001220703	9.6310690413963
292.60000610352	9.5592934241535
293.00000000000	9.4878695378531
293.39999389648	9.4168011317797
293.79998779297	9.3460976837444
294.20001220703	9.2757580636099
294.60000610352	9.2057864874397
295.00000000000	9.1361869199100
295.39999389648	9.0669647301371
295.79998779297	8.9981213080415
296.20001220703	8.9296578393645
296.60000610352	8.8615850542914
297.00000000000	8.7938940730049
297.39999389648	8.7265945592240
297.79998779297	8.6596907523824
298.20001220703	8.5931831282340
298.60000610352	8.5270710745728
299.00000000000	8.4613611172917
299.39999389648	8.3960525839434
299.79998779297	8.3311468873979
300.20001220703	8.2666514643393
300.60000610352	8.2025587200685
301.00000000000	8.1388792182321
301.39999389648	8.0756127354436
301.79998779297	8.0127525299316
302.20001220703	7.9503091231244
302.60000610352	7.8882810565333
303.00000000000	7.8266698294861
303.39999389648	7.7654720236003
303.79998779297	7.7046927541430
304.20001220703	7.6443330033291
304.60000610352	7.5843893103282
305.00000000000	7.5248680286144
305.39999389648	7.4657644214956
305.79998779297	7.4070811334352
306.20001220703	7.3488167448036
306.60000610352	7.2909748064280
307.00000000000	7.2335516205836
307.39999389648	7.1765479737995
307.79998779297	7.1199646009817
308.20001220703	7.0638005348515
308.60000610352	7.0080552335503
309.00000000000	6.9527275606960
309.39999389648	6.8978215847910
309.79998779297	6.8433298985808
310.20001220703	6.7892569640520
310.60000610352	6.7355978223311
311.00000000000	6.6823559596706
311.39999389648	6.6295249649610
311.79998779297	6.5771093721628
312.20001220703	6.5251062328182
312.60000610352	6.4735118721182
313.00000000000	6.4223278222122
313.39999389648	6.3715528388837
313.79998779297	6.3211847215456
314.20001220703	6.2712210035183
314.60000610352	6.2216634789281
315.00000000000	6.1725070857095
315.39999389648	6.1237508119046
315.79998779297	6.0753966845656
316.20001220703	6.0274398347962
316.60000610352	5.9798774174995
317.00000000000	5.9327089116702
317.39999389648	5.8859348414635
317.79998779297	5.8395503589186
318.20001220703	5.7935555755845
318.60000610352	5.7479471924201
319.00000000000	5.7027243894569
319.39999389648	5.6578837025099
319.79998779297	5.6134232164230
320.20001220703	5.5693415068195
320.60000610352	5.5256381760411
321.00000000000	5.4823077381964
321.39999389648	5.4393504739522
321.79998779297	5.3967638739770
322.20001220703	5.3545432686194
322.60000610352	5.3126906969139
323.00000000000	5.2712012743007
323.39999389648	5.2300710005357
323.79998779297	5.1893032903065
324.20001220703	5.1488909050132
324.60000610352	5.1088310529668
325.00000000000	5.0691242828109
325.39999389648	5.0297680537485
325.79998779297	4.9907574656580
326.20001220703	4.9520920962768
326.60000610352	4.9137700803780
327.00000000000	4.8757878480531
327.39999389648	4.8381432165334
327.79998779297	4.8008340630968
328.20001220703	4.7638569042011
328.60000610352	4.7272118393806
329.00000000000	4.6908925029505
329.39999389648	4.6548999129945
329.79998779297	4.6192295847868
330.20001220703	4.5838805874615
330.60000610352	4.5488492191069
331.00000000000	4.5141345138579
331.39999389648	4.4797316671622
331.79998779297	4.4456410879466
332.20001220703	4.4118579677209
332.60000610352	4.3783809352917
333.00000000000	4.3452064420841
333.39999389648	4.3123337267112
333.79998779297	4.2797589470553
334.20001220703	4.2474813323419
334.60000610352	4.2154967700111
335.00000000000	4.1838028130453
335.39999389648	4.1523992401460
335.79998779297	4.1212809892118
336.20001220703	4.0904470621336
336.60000610352	4.0598945822927
337.00000000000	4.0296215811613
337.39999389648	3.9996258752215
337.79998779297	3.9699031358902
338.20001220703	3.9404543140654
338.60000610352	3.9112738298357
339.00000000000	3.8823619562042
339.39999389648	3.8537139769927
339.79998779297	3.8253298816760
340.20001220703	3.7972060952099
340.60000610352	3.7693404035867
341.00000000000	3.7417302820711
341.39999389648	3.7143742264005
341.79998779297	3.6872695873601
342.20001220703	3.6604133536961
342.60000610352	3.6338053454608
343.00000000000	3.6074407728011
343.39999389648	3.5813192793728
343.79998779297	3.5554389817446
344.20001220703	3.5297953134045
344.60000610352	3.5043884193224
345.00000000000	3.4792147071279
345.39999389648	3.4542730916646
345.79998779297	3.4295609903565
346.20001220703	3.4050767593552
346.60000610352	3.3808180100825
347.00000000000	3.3567822726569
347.39999389648	3.3329678078416
347.79998779297	3.3093721165699
348.20001220703	3.2859945576483
348.60000610352	3.2628312527937
349.00000000000	3.2398817979849
349.39999389648	3.2171428894690
349.79998779297	3.1946138105446
350.20001220703	3.1722917088455
350.60000610352	3.1501747197052
351.00000000000	3.1282616844687
351.39999389648	3.1065501388876
351.79998779297	3.0850380904825
352.20001220703	3.0637234908929
352.60000610352	3.0426052073762
353.00000000000	3.0216809439191
353.39999389648	3.0009487373381
353.79998779297	2.9804072164492
354.20001220703	2.9600542449123
354.60000610352	2.9398877953144
355.00000000000	2.9199070159548
355.39999389648	2.9001095321584
355.79998779297	2.8804936515026
356.20001220703	2.8610575214015
356.60000610352	2.8417997270447
357.00000000000	2.8227186614416
357.39999389648	2.8038124181851
357.79998779297	2.7850792904081
358.20001220703	2.7665180314290
358.60000610352	2.7481264295817
359.00000000000	2.7299035069703
359.39999389648	2.7118470643600
359.79998779297	2.6939562006774
360.20001220703	2.6762288240993
360.60000610352	2.6586637542899
361.00000000000	2.6412589203620
361.39999389648	2.6240139206245
361.79998779297	2.6069258469024
362.20001220703	2.5899940104084
362.60000610352	2.5732168652746
363.00000000000	2.5565930945884
363.39999389648	2.5401208617708
363.79998779297	2.5237991670196
364.20001220703	2.5076261759731
364.60000610352	2.4916009381649
365.00000000000	2.4757220176522
365.39999389648	2.4599876957336
365.79998779297	2.4443968410086
366.20001220703	2.4289479431698
366.60000610352	2.4136399626196
367.00000000000	2.3984716805505
367.39999389648	2.3834413673026
367.79998779297	2.3685479470124
368.20001220703	2.3537902681053
368.60000610352	2.3391670981796
369.00000000000	2.3246770110418
369.39999389648	2.3103188617417
369.79998779297	2.2960915347511
370.20001220703	2.2819936376566
370.60000610352	2.2680240330192
371.00000000000	2.2541818222194
371.39999389648	2.2404655081971
371.79998779297	2.2268742622170
372.20001220703	2.2134064027075
372.60000610352	2.2000614392418
373.00000000000	2.1868381232129
373.39999389648	2.1737349462579
373.79998779297	2.1607513304774
374.20001220703	2.1478861184656
374.60000610352	2.1351379843264
375.00000000000	2.1225061087762
375.39999389648	2.1099895073479
375.79998779297	2.0975868660337
376.20001220703	2.0852974975369
376.60000610352	2.0731202345768
377.00000000000	2.0610543037846
377.39999389648	2.0490984720463
377.79998779297	2.0372520151191
378.20001220703	2.0255138493586
378.60000610352	2.0138832020404
379.00000000000	2.0023587119523
379.39999389648	1.9909401740197
379.79998779297	1.9796260449432
380.20001220703	1.9684159261313
380.60000610352	1.9573087861424
381.00000000000	1.9463034948289
381.39999389648	1.9353995515328
381.79998779297	1.9245959230299
382.20001220703	1.9138919818954
382.60000610352	1.9032867356611
383.00000000000	1.8927795419395
383.39999389648	1.8823695519332
383.79998779297	1.8720558032315
384.20001220703	1.8618378583315
384.60000610352	1.8517146236893
385.00000000000	1.8416856229236
385.39999389648	1.8317500832185
385.79998779297	1.8219071973631
386.20001220703	1.8121563391867
386.60000610352	1.8024967533678
387.00000000000	1.7929278623174
387.39999389648	1.7834488153834
387.79998779297	1.7740589822860
388.20001220703	1.7647579516480
388.60000610352	1.7555448387403
389.00000000000	1.7464191810596
389.39999389648	1.7373801514793
389.79998779297	1.7284273573900
390.20001220703	1.7195601211161
390.60000610352	1.7107779673520
391.00000000000	1.7020801012854
391.39999389648	1.6934662443089
391.79998779297	1.6849356502993
392.20001220703	1.6764879076877
392.60000610352	1.6681224856854
393.00000000000	1.6598387503734
393.39999389648	1.6516364776125
393.79998779297	1.6435149123452
394.20001220703	1.6354737461726
394.60000610352	1.6275124677675
395.00000000000	1.6196306703502
395.39999389648	1.6118279278670
395.79998779297	1.6041038297458
396.20001220703	1.5964579034857
396.60000610352	1.5888898612448
397.00000000000	1.5813992970069
397.39999389648	1.5739858498570
397.79998779297	1.5666491597645
398.20001220703	1.5593889227209
398.60000610352	1.5522048080532
399.00000000000	1.5450964861711
399.39999389648	1.5380637072073
399.79998779297	1.5311062774378
400.20001220703	1.5242237513547
400.60000610352	1.5174160468494
401.00000000000	1.5106828749228
401.39999389648	1.5040240798716
401.79998779297	1.4974393953575
402.20001220703	1.4909287350228
402.60000610352	1.4844918300396
403.00000000000	1.4781286129692
403.39999389648	1.4718390164744
403.79998779297	1.4656227766163
404.20001220703	1.4594799715066
404.60000610352	1.4534104283738
405.00000000000	1.4474141627972
405.39999389648	1.4414911007043
405.79998779297	1.4356412565029
406.20001220703	1.4298646149232
406.60000610352	1.4241611994346
407.00000000000	1.4185310788211
407.39999389648	1.4129743361194
407.79998779297	1.4074910299799
408.20001220703	1.4020813137838
408.60000610352	1.3967452660280
409.00000000000	1.3914830970380
409.39999389648	1.3862949785641
409.79998779297	1.3811809909223
410.20001220703	1.3761415637177
410.60000610352	1.3711768243982
411.00000000000	1.3662869921472
411.39999389648	1.3614724815655
411.79998779297	1.3567335142018
412.20001220703	1.3520704422351
412.60000610352	1.3474836701173
413.00000000000	1.3429735311537
413.39999389648	1.3385404554799
413.79998779297	1.3341848348047
414.20001220703	1.3299071811679
414.60000610352	1.3257079074007
415.00000000000	1.3215875717555
415.39999389648	1.3175466182352
415.79998779297	1.3135856266557
416.20001220703	1.3097051046919
416.60000610352	1.3059056729716
417.00000000000	1.3021879154471
417.39999389648	1.2985524233381
417.79998779297	1.2949997686599
418.20001220703	1.2915306628099
418.60000610352	1.2881457007762
419.00000000000	1.2848455630972
419.39999389648	1.2816308938967
419.79998779297	1.2785023356564
420.20001220703	1.2754605945916
420.60000610352	1.2725063000457
421.00000000000	1.2696401685304
421.39999389648	1.2668627945161
421.79998779297	1.2641748982379
422.20001220703	1.2615770554175
422.60000610352	1.2590699077596
423.00000000000	1.2566540615265
423.39999389648	1.2543301128544
423.79998779297	1.2520985830753
424.20001220703	1.2499600120898
424.60000610352	1.2479149107957
425.00000000000	1.2459636939670
425.39999389648	1.2441067695947
425.79998779297	1.2423445428743
426.20001220703	1.2406772761182
426.60000610352	1.2391052554895
427.00000000000	1.2376286442623
427.39999389648	1.2362476179900
427.79998779297	1.2349622323888
428.20001220703	1.2337724889525
428.60000610352	1.2326783439992
429.00000000000	1.2316796335136
429.39999389648	1.2307761762080
429.79998779297	1.2299676636328
430.20001220703	1.2292537368185
430.60000610352	1.2286339666685
431.00000000000	1.2281078224639
431.39999389648	1.2276747155186
431.79998779297	1.2273339510796
432.20001220703	1.2270847820832
432.60000610352	1.2269263971628
433.00000000000	1.2268578734779
433.39999389648	1.2268782526539
433.79998779297	1.2269864939462
434.20001220703	1.2271814914599
434.60000610352	1.2274620868688
435.00000000000	1.2278270280748
435.39999389648	1.2282750471529
435.79998779297	1.2288047988321
436.20001220703	1.2294149335526
436.60000610352	1.2301039975218
437.00000000000	1.2308705442819
437.39999389648	1.2317130754145
437.79998779297	1.2326300788475
438.20001220703	1.2336200159534
438.60000610352	1.2346812903182
439.00000000000	1.2358123405521
439.39999389648	1.2370115430309
439.79998779297	1.2382773073016
440.20001220703	1.2396080504708
440.60000610352	1.2410021444925
441.00000000000	1.2424579658953
441.39999389648	1.2439739232242
441.79998779297	1.2455484221376
442.20001220703	1.2471799236737
442.60000610352	1.2488668129982
443.00000000000	1.2506075449805
443.39999389648	1.2524006013742
443.79998779297	1.2542444889376
444.20001220703	1.2561376836362
444.60000610352	1.2580787468577
445.00000000000	1.2600662326183
445.39999389648	1.2620987072355
445.79998779297	1.2641748335252
446.20001220703	1.2662932147767
446.60000610352	1.2684525423296
447.00000000000	1.2706515225115
447.39999389648	1.2728888868987
447.79998779297	1.2751633764581
448.20001220703	1.2774738116642
448.60000610352	1.2798189676673
449.00000000000	1.2821977726610
449.39999389648	1.2846090206726
449.79998779297	1.2870516892887
450.20001220703	1.2895247027623
450.60000610352	1.2920270103571
451.00000000000	1.2945576370242
451.39999389648	1.2971156405623
451.79998779297	1.2996999868475
452.20001220703	1.3023098069247
452.60000610352	1.3049442654177
453.00000000000	1.3076024204944
453.39999389648	1.3102835018443
453.79998779297	1.3129865935181
454.20001220703	1.3157110066438
454.60000610352	1.3184559854297
455.00000000000	1.3212207121475
455.39999389648	1.3240044980916
455.79998779297	1.3268066953281
456.20001220703	1.3296265744101
456.60000610352	1.3324634857016
457.00000000000	1.3353168058959
457.39999389648	1.3381859291182
457.79998779297	1.3410703142035
458.20001220703	1.3439693047916
458.60000610352	1.3468823607462
459.00000000000	1.3498089796999
459.39999389648	1.3527485707465
459.79998779297	1.3557006955019
460.20001220703	1.3586648156190
460.60000610352	1.3616405481598
461.00000000000	1.3646272765046
461.39999389648	1.3676247193690
461.79998779297	1.3706323429612
462.20001220703	1.3736497302480
462.60000610352	1.3766765698637
463.00000000000	1.3797123677644
463.39999389648	1.3827567852977
463.79998779297	1.3858094446874
464.20001220703	1.3888699850111
464.60000610352	1.3919380733761
465.00000000000	1.3950133434262
465.39999389648	1.3980955339534
465.79998779297	1.4011842824589
466.20001220703	1.4042792787128
466.60000610352	1.4073802659587
467.00000000000	1.4104869194706
467.39999389648	1.4135989577008
467.79998779297	1.4167161606560
468.20001220703	1.4198382127588
468.60000610352	1.4229648971367
469.00000000000	1.4260958957966
469.39999389648	1.4292311047416
469.79998779297	1.4323701511701
470.20001220703	1.4355129015696
470.60000610352	1.4386591400480
471.00000000000	1.4418085327396
